Temperature (K)	Pressure (MPa)	Density (l, kg/m3)	Volume (l, m3/kg)	Internal Energy (l, kJ/kg)	Enthalpy (l, kJ/kg)	Entropy (l, J/g*K)	Cv (l, J/g*K)	Cp (l, J/g*K)	Sound Spd. (l, m/s)	Joule-Thomson (l, K/MPa)	Viscosity (l, uPa*s)	Therm. Cond. (l, W/m*K)	Surf. Tension (l, N/m)	Density (v, kg/m3)	Volume (v, m3/kg)	Internal Energy (v, kJ/kg)	Enthalpy (v, kJ/kg)	Entropy (v, J/g*K)	Cv (v, J/g*K)	Cp (v, J/g*K)	Sound Spd. (v, m/s)	Joule-Thomson (v, K/MPa)	Viscosity (v, uPa*s)	Therm. Cond. (v, W/m*K)
183.00	0.091522	1235.4	0.00080946	-2.9724	-2.8984	-0.015722	0.96004	1.7181	1145.3	-0.26617	0	0	0.024133	2.7131	0.36858	339.54	373.28	2.0399	0.58209	0.79756	212.18	44.131	0	0
184.00	0.097248	1232.5	0.00081139	-1.2563	-1.1774	-0.0063690	0.95866	1.7186	1138.8	-0.26455	0	0	0.023893	2.8704	0.34838	339.99	373.87	2.0320	0.58462	0.80135	212.55	43.456	0	0
185.00	0.10325	1229.5	0.00081333	0.46028	0.54426	0.0029360	0.95730	1.7192	1132.4	-0.26287	0	0	0.023653	3.0347	0.32952	340.45	374.47	2.0242	0.58719	0.80520	212.91	42.793	0	0
186.00	0.10955	1226.6	0.00081528	2.1774	2.2667	0.012194	0.95597	1.7199	1125.9	-0.26115	0	0	0.023414	3.2063	0.31189	340.89	375.06	2.0165	0.58978	0.80912	213.26	42.141	0	0
187.00	0.11614	1223.6	0.00081725	3.8950	3.9899	0.021405	0.95467	1.7207	1119.5	-0.25938	0	0	0.023176	3.3853	0.29540	341.34	375.65	2.0089	0.59241	0.81312	213.61	41.500	0	0
188.00	0.12305	1220.6	0.00081924	5.6133	5.7141	0.030570	0.95339	1.7215	1113.1	-0.25756	0	0	0.022937	3.5719	0.27996	341.78	376.23	2.0014	0.59506	0.81719	213.95	40.870	0	0
189.00	0.13027	1217.7	0.00082124	7.3323	7.4393	0.039691	0.95214	1.7224	1106.7	-0.25569	0	0	0.022700	3.7664	0.26550	342.22	376.81	1.9940	0.59773	0.82133	214.29	40.252	0	0
190.00	0.13782	1214.7	0.00082325	9.0520	9.1655	0.048767	0.95091	1.7234	1100.2	-0.25377	0	0	0.022463	3.9691	0.25195	342.66	377.39	1.9868	0.60044	0.82554	214.62	39.645	0	0
191.00	0.14571	1211.7	0.00082528	10.773	10.893	0.057801	0.94970	1.7244	1093.8	-0.25179	0	0	0.022226	4.1800	0.23923	343.10	377.96	1.9796	0.60317	0.82982	214.93	39.048	0	0
192.00	0.15394	1208.7	0.00082733	12.494	12.621	0.066791	0.94851	1.7255	1087.4	-0.24976	0	0	0.021990	4.3996	0.22730	343.53	378.52	1.9725	0.60592	0.83418	215.25	38.462	0	0
193.00	0.16254	1205.7	0.00082939	14.216	14.351	0.075741	0.94735	1.7267	1081.0	-0.24768	0	0	0.021755	4.6279	0.21608	343.96	379.09	1.9656	0.60870	0.83861	215.55	37.887	0	0
194.00	0.17151	1202.7	0.00083148	15.940	16.082	0.084649	0.94621	1.7280	1074.6	-0.24554	0	0	0.021520	4.8653	0.20554	344.39	379.64	1.9587	0.61150	0.84311	215.85	37.322	0	0
195.00	0.18085	1199.7	0.00083357	17.664	17.815	0.093517	0.94510	1.7293	1068.2	-0.24334	0	0	0.021285	5.1120	0.19562	344.82	380.20	1.9519	0.61433	0.84768	216.14	36.768	0	0
196.00	0.19059	1196.6	0.00083569	19.390	19.549	0.10234	0.94400	1.7307	1061.8	-0.24108	0	0	0.021051	5.3682	0.18628	345.24	380.74	1.9452	0.61718	0.85233	216.42	36.223	0	0
197.00	0.20073	1193.6	0.00083782	21.116	21.285	0.11113	0.94293	1.7322	1055.5	-0.23877	0	0	0.020818	5.6342	0.17749	345.66	381.29	1.9386	0.62005	0.85706	216.70	35.689	0	0
198.00	0.21128	1190.5	0.00083997	22.844	23.022	0.11989	0.94188	1.7337	1049.1	-0.23640	0	0	0.020585	5.9102	0.16920	346.08	381.82	1.9320	0.62294	0.86186	216.97	35.165	0	0
199.00	0.22226	1187.5	0.00084214	24.574	24.761	0.12860	0.94085	1.7353	1042.7	-0.23396	0	0	0.020353	6.1966	0.16138	346.49	382.36	1.9256	0.62585	0.86673	217.23	34.651	0	0
200.00	0.23367	1184.4	0.00084433	26.304	26.502	0.13728	0.93984	1.7370	1036.3	-0.23146	0	0	0.020121	6.4935	0.15400	346.90	382.89	1.9192	0.62878	0.87168	217.48	34.146	0	0
201.00	0.24553	1181.3	0.00084653	28.036	28.244	0.14592	0.93885	1.7388	1030.0	-0.22890	0	0	0.019890	6.8012	0.14703	347.31	383.41	1.9129	0.63173	0.87671	217.72	33.651	0	0
202.00	0.25785	1178.2	0.00084876	29.770	29.989	0.15453	0.93788	1.7406	1023.6	-0.22627	0	0	0.019659	7.1201	0.14045	347.71	383.93	1.9067	0.63470	0.88181	217.96	33.166	0	0
203.00	0.27064	1175.1	0.00085101	31.505	31.736	0.16310	0.93692	1.7426	1017.2	-0.22358	0	0	0.019429	7.4503	0.13422	348.11	384.44	1.9005	0.63769	0.88699	218.19	32.690	0	0
204.00	0.28391	1172.0	0.00085327	33.242	33.484	0.17163	0.93599	1.7446	1010.9	-0.22081	0	0	0.019200	7.7921	0.12833	348.51	384.94	1.8945	0.64069	0.89225	218.41	32.222	0	0
205.00	0.29767	1168.8	0.00085556	34.980	35.235	0.18014	0.93508	1.7467	1004.5	-0.21798	0	0	0.018971	8.1460	0.12276	348.90	385.45	1.8885	0.64371	0.89760	218.62	31.765	0	0
206.00	0.31194	1165.7	0.00085787	36.721	36.988	0.18861	0.93418	1.7488	998.13	-0.21508	0	0	0.018742	8.5120	0.11748	349.29	385.94	1.8826	0.64674	0.90302	218.83	31.315	0	0
207.00	0.32673	1162.5	0.00086020	38.463	38.744	0.19705	0.93331	1.7511	991.77	-0.21210	0	0	0.018514	8.8906	0.11248	349.68	386.43	1.8767	0.64979	0.90852	219.02	30.875	0	0
208.00	0.34204	1159.4	0.00086255	40.207	40.502	0.20546	0.93245	1.7534	985.41	-0.20905	0	0	0.018287	9.2820	0.10774	350.06	386.91	1.8709	0.65286	0.91411	219.21	30.444	0	0
209.00	0.35790	1156.2	0.00086492	41.952	42.262	0.21384	0.93161	1.7558	979.06	-0.20592	0	0	0.018060	9.6865	0.10324	350.44	387.39	1.8652	0.65594	0.91978	219.39	30.021	0	0
210.00	0.37431	1153.0	0.00086732	43.700	44.025	0.22218	0.93079	1.7583	972.70	-0.20272	0	0	0.017834	10.104	0.098966	350.82	387.86	1.8595	0.65903	0.92554	219.56	29.606	0	0
211.00	0.39128	1149.8	0.00086974	45.450	45.791	0.23050	0.92998	1.7609	966.35	-0.19943	0	0	0.017609	10.536	0.094911	351.19	388.33	1.8539	0.66213	0.93138	219.73	29.199	0	0
212.00	0.40884	1146.6	0.00087218	47.202	47.559	0.23879	0.92919	1.7636	960.00	-0.19607	0	0	0.017384	10.982	0.091059	351.56	388.79	1.8483	0.66525	0.93732	219.88	28.801	0	0
213.00	0.42698	1143.3	0.00087465	48.957	49.330	0.24705	0.92842	1.7663	953.64	-0.19261	0	0	0.017160	11.442	0.087396	351.92	389.24	1.8429	0.66838	0.94334	220.03	28.410	0	0
214.00	0.44573	1140.1	0.00087714	50.713	51.104	0.25528	0.92767	1.7692	947.29	-0.18908	0	0	0.016936	11.917	0.083913	352.28	389.68	1.8374	0.67152	0.94946	220.17	28.028	0	0
215.00	0.46509	1136.8	0.00087966	52.472	52.881	0.26349	0.92693	1.7721	940.94	-0.18545	0	0	0.016713	12.407	0.080599	352.64	390.12	1.8321	0.67467	0.95567	220.30	27.653	0	0
216.00	0.48509	1133.5	0.00088220	54.233	54.661	0.27167	0.92621	1.7751	934.58	-0.18174	0	0	0.016490	12.912	0.077445	352.99	390.55	1.8267	0.67784	0.96198	220.42	27.285	0	0
217.00	0.50572	1130.2	0.00088477	55.997	56.444	0.27982	0.92550	1.7783	928.23	-0.17793	0	0	0.016268	13.434	0.074440	353.33	390.98	1.8215	0.68101	0.96839	220.54	26.925	0	0
218.00	0.52701	1126.9	0.00088736	57.763	58.231	0.28795	0.92481	1.7815	921.87	-0.17402	0	0	0.016047	13.971	0.071577	353.68	391.40	1.8162	0.68419	0.97489	220.64	26.573	0	0
219.00	0.54896	1123.6	0.00088999	59.532	60.021	0.29605	0.92414	1.7848	915.52	-0.17002	0	0	0.015827	14.525	0.068848	354.01	391.81	1.8111	0.68739	0.98150	220.74	26.227	0	0
220.00	0.57160	1120.3	0.00089264	61.304	61.814	0.30413	0.92348	1.7883	909.16	-0.16592	0	0	0.015607	15.095	0.066245	354.35	392.21	1.8059	0.69059	0.98822	220.82	25.888	0	0
221.00	0.59493	1116.9	0.00089532	63.078	63.611	0.31218	0.92284	1.7918	902.80	-0.16171	0	0	0.015387	15.683	0.063762	354.68	392.61	1.8009	0.69380	0.99505	220.90	25.557	0	0
222.00	0.61896	1113.5	0.00089803	64.856	65.412	0.32021	0.92221	1.7954	896.44	-0.15740	0	0	0.015169	16.289	0.061391	355.00	393.00	1.7958	0.69702	1.0020	220.97	25.232	0	0
223.00	0.64372	1110.2	0.00090077	66.636	67.216	0.32822	0.92160	1.7992	890.08	-0.15298	0	0	0.014950	16.913	0.059127	355.32	393.38	1.7908	0.70025	1.0090	221.03	24.913	0	0
224.00	0.66921	1106.8	0.00090354	68.419	69.024	0.33621	0.92101	1.8031	883.72	-0.14844	0	0	0.014733	17.555	0.056965	355.63	393.75	1.7859	0.70348	1.0162	221.08	24.601	0	0
225.00	0.69544	1103.3	0.00090634	70.206	70.836	0.34417	0.92042	1.8070	877.35	-0.14379	0	0	0.014516	18.216	0.054898	355.94	394.12	1.7810	0.70673	1.0235	221.13	24.295	0	0
226.00	0.72244	1099.9	0.00090917	71.995	72.652	0.35212	0.91986	1.8111	870.98	-0.13903	0	0	0.014300	18.896	0.052921	356.25	394.48	1.7761	0.70998	1.0309	221.16	23.996	0	0
227.00	0.75020	1096.4	0.00091204	73.788	74.472	0.36004	0.91930	1.8154	864.61	-0.13413	0	0	0.014085	19.596	0.051031	356.54	394.83	1.7713	0.71324	1.0385	221.18	23.703	0	0
228.00	0.77876	1093.0	0.00091494	75.584	76.296	0.36795	0.91877	1.8197	858.23	-0.12912	0	0	0.013870	20.316	0.049221	356.84	395.17	1.7665	0.71651	1.0462	221.20	23.415	0	0
229.00	0.80811	1089.5	0.00091788	77.383	78.125	0.37583	0.91824	1.8242	851.85	-0.12397	0	0	0.013656	21.057	0.047490	357.12	395.50	1.7618	0.71979	1.0540	221.20	23.134	0	0
230.00	0.83828	1086.0	0.00092085	79.186	79.958	0.38370	0.91774	1.8288	845.46	-0.11869	0	0	0.013443	21.819	0.045831	357.41	395.83	1.7570	0.72307	1.0620	221.20	22.858	0	0
231.00	0.86927	1082.4	0.00092385	80.993	81.796	0.39155	0.91724	1.8335	839.07	-0.11327	0	0	0.013230	22.603	0.044242	357.68	396.14	1.7523	0.72636	1.0701	221.19	22.588	0	0
232.00	0.90111	1078.9	0.00092689	82.803	83.638	0.39938	0.91676	1.8384	832.68	-0.10771	0	0	0.013018	23.409	0.042719	357.95	396.45	1.7477	0.72966	1.0784	221.17	22.323	0	0
233.00	0.93380	1075.3	0.00092998	84.617	85.485	0.40719	0.91630	1.8434	826.28	-0.10199	0	0	0.012807	24.237	0.041259	358.22	396.74	1.7431	0.73297	1.0868	221.13	22.063	0	0
234.00	0.96737	1071.7	0.00093309	86.435	87.337	0.41499	0.91585	1.8486	819.88	-0.096133	0	0	0.012596	25.089	0.039858	358.47	397.03	1.7385	0.73629	1.0955	221.09	21.809	0	0
235.00	1.0018	1068.1	0.00093625	88.257	89.195	0.42277	0.91541	1.8539	813.47	-0.090113	0	0	0.012387	25.964	0.038514	358.73	397.31	1.7339	0.73961	1.1042	221.04	21.560	0	0
236.00	1.0372	1064.4	0.00093945	90.083	91.057	0.43054	0.91499	1.8594	807.05	-0.083931	0	0	0.012178	26.864	0.037225	358.97	397.58	1.7294	0.74294	1.1132	220.98	21.316	0	0
237.00	1.0734	1060.8	0.00094270	91.913	92.925	0.43829	0.91458	1.8650	800.63	-0.077581	0	0	0.011969	27.788	0.035986	359.21	397.84	1.7248	0.74628	1.1224	220.91	21.076	0	0
238.00	1.1106	1057.1	0.00094598	93.747	94.798	0.44603	0.91418	1.8708	794.20	-0.071057	0	0	0.011762	28.738	0.034797	359.44	398.09	1.7204	0.74963	1.1317	220.83	20.842	0	0
239.00	1.1487	1053.4	0.00094931	95.586	96.676	0.45376	0.91380	1.8768	787.76	-0.064353	0	0	0.011555	29.714	0.033654	359.67	398.33	1.7159	0.75299	1.1413	220.74	20.612	0	0
240.00	1.1878	1049.7	0.00095268	97.429	98.561	0.46147	0.91344	1.8830	781.31	-0.057462	0	0	0.011349	30.717	0.032555	359.89	398.55	1.7114	0.75636	1.1510	220.64	20.387	0	0
241.00	1.2278	1045.9	0.00095611	99.277	100.45	0.46917	0.91309	1.8893	774.86	-0.050379	0	0	0.011143	31.747	0.031499	360.10	398.77	1.7070	0.75974	1.1610	220.53	20.166	0	0
242.00	1.2688	1042.1	0.00095957	101.13	102.35	0.47686	0.91275	1.8959	768.40	-0.043095	0	0	0.010939	32.805	0.030483	360.30	398.98	1.7026	0.76312	1.1713	220.41	19.949	0	0
243.00	1.3109	1038.3	0.00096309	102.99	104.25	0.48454	0.91243	1.9026	761.92	-0.035604	0	0	0.010735	33.892	0.029506	360.50	399.17	1.6982	0.76652	1.1817	220.27	19.737	0	0
244.00	1.3539	1034.5	0.00096666	104.85	106.16	0.49221	0.91212	1.9096	755.44	-0.027898	0	0	0.010532	35.008	0.028565	360.68	399.36	1.6938	0.76993	1.1925	220.13	19.529	0	0
245.00	1.3979	1030.6	0.00097028	106.72	108.07	0.49986	0.91183	1.9168	748.95	-0.019968	0	0	0.010330	36.154	0.027659	360.86	399.53	1.6895	0.77335	1.2035	219.98	19.325	0	0
246.00	1.4430	1026.7	0.00097395	108.59	110.00	0.50751	0.91155	1.9242	742.45	-0.011806	0	0	0.010129	37.332	0.026787	361.04	399.69	1.6851	0.77678	1.2147	219.82	19.124	0	0
247.00	1.4892	1022.8	0.00097768	110.47	111.92	0.51516	0.91129	1.9318	735.93	-0.0034025	0	0	0.0099282	38.541	0.025947	361.20	399.84	1.6808	0.78023	1.2263	219.65	18.928	0	0
248.00	1.5364	1018.9	0.00098147	112.35	113.86	0.52279	0.91105	1.9397	729.41	0.0052519	0	0	0.0097286	39.782	0.025137	361.36	399.98	1.6765	0.78369	1.2382	219.46	18.735	0	0
249.00	1.5847	1014.9	0.00098531	114.24	115.80	0.53042	0.91081	1.9478	722.87	0.014167	0	0	0.0095297	41.057	0.024356	361.50	400.10	1.6722	0.78716	1.2504	219.27	18.546	0	0
250.00	1.6341	1010.9	0.00098922	116.14	117.75	0.53804	0.91060	1.9562	716.31	0.023355	0	0	0.0093318	42.367	0.023603	361.64	400.21	1.6679	0.79064	1.2629	219.07	18.361	0	0
251.00	1.6846	1006.9	0.00099318	118.04	119.71	0.54565	0.91040	1.9649	709.75	0.032826	0	0	0.0091347	43.712	0.022877	361.77	400.31	1.6636	0.79415	1.2758	218.85	18.179	0	0
252.00	1.7363	1002.8	0.00099721	119.94	121.68	0.55326	0.91022	1.9739	703.16	0.042592	0	0	0.0089384	45.093	0.022176	361.89	400.39	1.6593	0.79766	1.2891	218.62	18.000	0	0
253.00	1.7891	998.69	0.0010013	121.86	123.65	0.56087	0.91005	1.9832	696.57	0.052666	0	0	0.0087431	46.511	0.021500	362.00	400.46	1.6550	0.80120	1.3028	218.39	17.824	0	0
254.00	1.8430	994.55	0.0010055	123.78	125.63	0.56848	0.90990	1.9929	689.95	0.063062	0	0	0.0085486	47.968	0.020847	362.10	400.52	1.6507	0.80475	1.3169	218.14	17.652	0	0
255.00	1.8982	990.38	0.0010097	125.70	127.62	0.57608	0.90977	2.0028	683.32	0.073794	0	0	0.0083550	49.464	0.020217	362.19	400.56	1.6464	0.80832	1.3314	217.88	17.483	0	0
256.00	1.9545	986.17	0.0010140	127.64	129.62	0.58368	0.90965	2.0132	676.67	0.084877	0	0	0.0081624	51.001	0.019607	362.27	400.59	1.6421	0.81191	1.3464	217.61	17.317	0	0
257.00	2.0120	981.93	0.0010184	129.58	131.63	0.59128	0.90956	2.0239	670.00	0.096328	0	0	0.0079707	52.580	0.019019	362.33	400.60	1.6379	0.81553	1.3620	217.33	17.153	0	0
258.00	2.0708	977.65	0.0010229	131.53	133.65	0.59888	0.90948	2.0350	663.31	0.10816	0	0	0.0077800	54.201	0.018450	362.39	400.60	1.6336	0.81916	1.3780	217.03	16.993	0	0
259.00	2.1308	973.32	0.0010274	133.48	135.67	0.60648	0.90942	2.0465	656.60	0.12040	0	0	0.0075902	55.868	0.017899	362.44	400.58	1.6293	0.82282	1.3946	216.73	16.835	0	0
260.00	2.1920	968.96	0.0010320	135.45	137.71	0.61409	0.90938	2.0584	649.86	0.13307	0	0	0.0074014	57.579	0.017367	362.47	400.54	1.6250	0.82650	1.4118	216.41	16.679	0	0
261.00	2.2546	964.56	0.0010367	137.42	139.76	0.62169	0.90937	2.0709	643.10	0.14617	0	0	0.0072135	59.339	0.016852	362.49	400.48	1.6207	0.83021	1.4296	216.08	16.527	0	0
262.00	2.3184	960.11	0.0010416	139.40	141.81	0.62931	0.90937	2.0838	636.32	0.15974	0	0	0.0070267	61.147	0.016354	362.50	400.41	1.6163	0.83394	1.4481	215.74	16.376	0	0
263.00	2.3835	955.61	0.0010464	141.39	143.88	0.63693	0.90940	2.0972	629.51	0.17381	0	0	0.0068409	63.005	0.015872	362.49	400.32	1.6120	0.83771	1.4673	215.39	16.229	0	0
264.00	2.4499	951.07	0.0010514	143.38	145.96	0.64455	0.90945	2.1112	622.67	0.18839	0	0	0.0066562	64.916	0.015405	362.47	400.21	1.6076	0.84150	1.4872	215.02	16.083	0	0
265.00	2.5177	946.49	0.0010565	145.39	148.05	0.65218	0.90952	2.1258	615.81	0.20351	0	0	0.0064724	66.880	0.014952	362.44	400.09	1.6033	0.84533	1.5080	214.64	15.939	0	0
266.00	2.5868	941.85	0.0010617	147.41	150.15	0.65983	0.90962	2.1411	608.91	0.21921	0	0	0.0062898	68.901	0.014514	362.40	399.94	1.5989	0.84919	1.5296	214.25	15.798	0	0
267.00	2.6573	937.16	0.0010671	149.43	152.27	0.66748	0.90974	2.1570	601.98	0.23552	0	0	0.0061082	70.979	0.014089	362.33	399.77	1.5945	0.85308	1.5522	213.85	15.659	0	0
268.00	2.7292	932.42	0.0010725	151.47	154.39	0.67514	0.90989	2.1736	595.01	0.25246	0	0	0.0059278	73.117	0.013677	362.26	399.58	1.5900	0.85702	1.5757	213.43	15.521	0	0
269.00	2.8025	927.62	0.0010780	153.51	156.53	0.68282	0.91007	2.1910	588.01	0.27009	0	0	0.0057485	75.318	0.013277	362.16	399.37	1.5856	0.86099	1.6004	213.01	15.385	0	0
270.00	2.8772	922.76	0.0010837	155.57	158.69	0.69051	0.91029	2.2092	580.97	0.28843	0	0	0.0055703	77.583	0.012889	362.05	399.14	1.5811	0.86501	1.6262	212.56	15.251	0	0
271.00	2.9534	917.85	0.0010895	157.64	160.86	0.69822	0.91053	2.2283	573.89	0.30754	0	0	0.0053933	79.915	0.012513	361.93	398.88	1.5766	0.86907	1.6532	212.11	15.119	0	0
272.00	3.0310	912.87	0.0010954	159.72	163.04	0.70595	0.91081	2.2484	566.77	0.32745	0	0	0.0052175	82.318	0.012148	361.78	398.60	1.5720	0.87318	1.6816	211.64	14.988	0	0
273.00	3.1101	907.83	0.0011015	161.81	165.24	0.71370	0.91112	2.2695	559.60	0.34823	0	0	0.0050429	84.793	0.011793	361.62	398.30	1.5674	0.87734	1.7114	211.16	14.858	0	0
274.00	3.1907	902.72	0.0011078	163.92	167.45	0.72147	0.91147	2.2917	552.38	0.36993	0	0	0.0048695	87.344	0.011449	361.43	397.96	1.5628	0.88156	1.7428	210.66	14.730	0	0
275.00	3.2728	897.54	0.0011142	166.04	169.68	0.72927	0.91186	2.3151	545.11	0.39261	0	0	0.0046974	89.975	0.011114	361.23	397.61	1.5581	0.88583	1.7759	210.15	14.603	0	0
276.00	3.3565	892.28	0.0011207	168.17	171.93	0.73709	0.91229	2.3399	537.79	0.41634	0	0	0.0045266	92.689	0.010789	361.01	397.22	1.5533	0.89016	1.8109	209.63	14.477	0	0
277.00	3.4417	886.95	0.0011275	170.32	174.20	0.74494	0.91278	2.3660	530.41	0.44119	0	0	0.0043571	95.490	0.010472	360.76	396.80	1.5486	0.89455	1.8480	209.09	14.352	0	0
278.00	3.5285	881.53	0.0011344	172.48	176.48	0.75283	0.91330	2.3937	522.97	0.46724	0	0	0.0041890	98.382	0.010164	360.49	396.35	1.5437	0.89902	1.8872	208.54	14.227	0	0
279.00	3.6168	876.03	0.0011415	174.66	178.79	0.76075	0.91389	2.4232	515.47	0.49459	0	0	0.0040222	101.37	0.0098649	360.19	395.87	1.5388	0.90355	1.9290	207.97	14.104	0	0
280.00	3.7068	870.44	0.0011488	176.86	181.12	0.76870	0.91453	2.4545	507.90	0.52333	0	0	0.0038569	104.46	0.0095732	359.87	395.36	1.5338	0.90817	1.9734	207.39	13.981	0	0
281.00	3.7985	864.75	0.0011564	179.07	183.47	0.77670	0.91523	2.4879	500.26	0.55357	0	0	0.0036930	107.65	0.0092892	359.52	394.81	1.5288	0.91286	2.0209	206.79	13.858	0	0
282.00	3.8918	858.96	0.0011642	181.31	185.84	0.78474	0.91599	2.5236	492.54	0.58544	0	0	0.0035306	110.96	0.0090124	359.14	394.22	1.5237	0.91765	2.0716	206.18	13.735	0	0
283.00	3.9868	853.06	0.0011722	183.56	188.24	0.79284	0.91683	2.5619	484.73	0.61907	0	0	0.0033697	114.38	0.0087425	358.73	393.59	1.5185	0.92253	2.1261	205.55	13.612	0	0
284.00	4.0835	847.05	0.0011806	185.84	190.66	0.80098	0.91775	2.6030	476.84	0.65462	0	0	0.0032104	117.93	0.0084793	358.29	392.92	1.5132	0.92751	2.1846	204.90	13.489	0	0
285.00	4.1820	840.92	0.0011892	188.14	193.11	0.80919	0.91875	2.6472	468.86	0.69225	0	0	0.0030527	121.62	0.0082225	357.82	392.21	1.5078	0.93259	2.2478	204.24	13.366	0	0
286.00	4.2822	834.66	0.0011981	190.46	195.59	0.81746	0.91984	2.6951	460.78	0.73216	0	0	0.0028967	125.44	0.0079717	357.31	391.45	1.5023	0.93780	2.3163	203.56	13.242	0	0
287.00	4.3842	828.26	0.0012074	192.81	198.10	0.82579	0.92104	2.7470	452.59	0.77457	0	0	0.0027424	129.42	0.0077267	356.76	390.64	1.4966	0.94313	2.3906	202.86	13.117	0	0
288.00	4.4880	821.71	0.0012170	195.19	200.65	0.83421	0.92234	2.8035	444.29	0.81972	0	0	0.0025898	133.56	0.0074872	356.17	389.77	1.4909	0.94860	2.4717	202.15	12.991	0	0
289.00	4.5936	815.00	0.0012270	197.59	203.23	0.84271	0.92377	2.8653	435.87	0.86790	0	0	0.0024391	137.88	0.0072529	355.54	388.85	1.4850	0.95421	2.5606	201.42	12.863	0	0
290.00	4.7012	808.11	0.0012375	200.03	205.85	0.85130	0.92534	2.9332	427.31	0.91943	0	0	0.0022903	142.38	0.0070235	354.85	387.87	1.4790	0.95999	2.6583	200.67	12.734	0	0
291.00	4.8106	801.04	0.0012484	202.51	208.51	0.86000	0.92706	3.0082	418.61	0.97470	0	0	0.0021435	147.09	0.0067987	354.12	386.82	1.4728	0.96594	2.7664	199.90	12.602	0	0
292.00	4.9220	793.76	0.0012598	205.02	211.22	0.86881	0.92895	3.0914	409.77	1.0341	0	0	0.0019987	152.02	0.0065783	353.33	385.70	1.4664	0.97208	2.8867	199.11	12.468	0	0
293.00	5.0353	786.25	0.0012719	207.57	213.98	0.87775	0.93103	3.1843	400.75	1.0982	0	0	0.0018560	157.19	0.0063618	352.47	384.51	1.4598	0.97843	3.0212	198.30	12.330	0	0
294.00	5.1507	778.49	0.0012845	210.17	216.79	0.88683	0.93332	3.2889	391.56	1.1676	0	0	0.0017156	162.63	0.0061491	351.55	383.22	1.4529	0.98500	3.1729	197.48	12.189	0	0
295.00	5.2681	770.46	0.0012979	212.83	219.66	0.89607	0.93586	3.4075	382.17	1.2430	0	0	0.0015775	168.36	0.0059397	350.56	381.85	1.4459	0.99183	3.3453	196.63	12.043	0	0
296.00	5.3876	762.12	0.0013121	215.53	222.60	0.90549	0.93868	3.5433	372.57	1.3253	0	0	0.0014418	174.42	0.0057333	349.48	380.37	1.4385	0.99894	3.5428	195.75	11.891	0	0
297.00	5.5092	753.43	0.0013273	218.31	225.62	0.91513	0.94183	3.7004	362.74	1.4154	0	0	0.0013088	180.85	0.0055294	348.31	378.77	1.4308	1.0064	3.7717	194.86	11.734	0	0
